time (s)	magX	magY	magZ
3728.157663	-281.752777	-68.725891	579.219177
3728.160998	-278.012268	-71.355934	587.518433
3728.164334	-273.219757	-74.570427	596.460571
3728.167679	-269.187012	-76.908241	607.156067
3728.170996	-263.284058	-80.122734	616.039734
3728.174325	-258.316193	-83.161896	624.748169
3728.177653	-253.523651	-85.382812	633.573364
3728.180995	-247.270020	-88.831093	642.866211
3728.184325	-240.899475	-92.104034	652.860352
3728.187672	-234.821167	-95.143188	659.639954
3728.190996	-228.392181	-97.539452	667.705444
3728.194333	-219.976044	-100.812386	677.758057
3728.197654	-212.904144	-103.208649	683.719482
3728.200995	-205.773804	-106.364708	690.791382
3728.204328	-197.825241	-109.637642	699.324402
3728.207653	-189.467560	-112.793686	705.694946
3728.211023	-181.109879	-115.365280	712.766846
3728.214324	-172.635300	-118.521332	717.968445
3728.217655	-163.459381	-121.502045	725.624817
3728.220990	-154.984802	-124.891884	730.417297
3728.224325	-146.218002	-127.288139	736.320312
3728.227657	-136.399170	-130.911743	742.340210
3728.230991	-126.521912	-132.314423	745.730042
3728.234317	-116.703094	-135.236694	748.652283
3728.237656	-106.825836	-137.808289	751.574585
3728.240987	-96.364105	-139.912323	755.899475
3728.244320	-86.486847	-142.717697	757.360657
3728.247651	-76.375801	-145.523071	759.932251
3728.250982	-65.680305	-147.627106	761.568665
3728.255623	-44.464638	-152.361191	765.893677
3728.258507	-33.886032	-153.646988	765.484497
3728.261839	-22.722969	-155.926346	765.601440
3728.265195	-12.436588	-157.796600	766.653442
3728.268516	-2.325541	-159.082413	763.263611
3728.271947	8.428405	-160.894211	761.919373
3728.275237	18.948568	-162.472229	761.042725
3728.278508	29.819405	-164.342484	757.302185
3728.281821	40.573349	-164.576263	757.652832
3728.284762	50.801285	-165.686722	752.918762
3728.288074	60.561661	-167.206299	749.295166
3728.291448	70.438919	-167.966095	745.145569
3728.294731	80.842194	-168.024551	741.638855
3728.298078	90.719467	-169.018112	737.722961
3728.301427	100.538277	-169.193451	733.339600
3728.304753	110.240211	-170.420792	726.618408
3728.308078	120.292809	-170.479248	720.832275
3728.310983	129.176514	-170.479248	713.935791
3728.314309	138.177094	-170.070129	709.493896
3728.317646	147.528351	-170.070129	701.136230
3728.320982	154.950897	-169.661011	694.239685
3728.324309	163.308594	-169.427231	687.050842
3728.327645	172.250732	-169.018112	678.810059
3728.330984	180.140854	-169.368790	670.686157
3728.334307	187.972534	-168.667435	662.036255
3728.337648	195.102859	-167.440094	653.210999
3728.340985	202.350082	-166.621841	645.145569
3728.344309	208.895966	-166.212738	637.606079
3728.347643	215.149628	-165.394501	626.969055
3728.350973	221.169495	-164.108704	617.208679
3728.354308	227.014038	-162.881348	607.915894
3728.357640	232.683228	-162.355347	598.272400
3728.360975	237.826416	-161.770889	589.388733
3728.364308	242.735840	-160.309753	579.745178
3728.367640	247.236130	-159.491516	569.575684
3728.370976	251.093506	-158.381058	562.912964
3728.374311	255.067795	-157.153702	552.158997
3728.377683	259.918762	-156.744583	542.924622
3728.380974	262.431885	-154.348328	531.995361
3728.384332	265.880188	-153.179428	523.812988
3728.387642	268.685577	-151.601395	512.766846
3728.390974	269.971375	-150.958496	504.058441
3728.394301	273.594971	-149.029800	494.824097
3728.397662	275.874329	-147.685562	484.245453
3728.400973	277.510803	-146.224426	475.303345
3728.404302	280.433075	-145.464630	464.374054
3728.407633	281.309753	-142.834595	455.957916
3728.410976	283.413788	-142.016357	446.898865
3728.414306	283.822906	-139.912323	437.839874
3728.417637	286.102295	-138.860306	429.189941
3728.420966	287.095856	-137.223831	419.721802
3728.424302	287.621857	-134.886017	412.591492
3728.427663	288.089417	-133.541779	403.883087
3728.430973	288.966095	-130.911743	394.765625
3728.434301	288.556976	-129.742828	386.466370
3728.437636	288.790771	-127.989479	378.985382
3728.440992	288.790771	-126.060783	369.809448
3728.445574	289.024536	-122.670952	354.379883
3728.448926	288.381653	-120.625366	346.314423
3728.451843	287.972534	-118.696671	338.833435
3728.455174	287.271179	-117.177094	331.469330
3728.458498	286.336060	-115.949738	325.332550
3728.461920	286.394501	-113.436592	316.741089
3728.465237	284.991821	-111.858559	310.312103
3728.468479	283.822906	-110.105209	303.415527
3728.471850	282.887787	-108.351837	296.928131
3728.474729	282.186432	-106.715370	288.628876
3728.478055	280.433075	-104.962013	283.076569
3728.481389	278.855072	-103.676216	278.167145
3728.484730	277.861481	-101.922844	271.913513
3728.488066	276.517242	-100.461723	265.893616
3728.491404	275.289886	-98.182350	258.997070
3728.494744	273.653412	-97.013443	253.444763
3728.498057	272.075378	-95.260086	248.827576
3728.500965	271.257141	-94.383400	243.099945
3728.504299	269.679138	-92.980713	238.541199
3728.507631	267.516663	-91.811806	233.281113
3728.510963	265.295746	-90.116890	228.021042
3728.514290	264.477478	-89.298653	223.111633
3728.517624	263.542358	-87.779076	218.026871
3728.520957	261.029236	-86.142609	214.169495
3728.524297	259.801880	-85.265923	210.195206
3728.527636	258.516052	-83.512566	205.928711
3728.530958	256.528931	-82.518997	202.071304
3728.534287	255.067795	-81.291641	197.220352
3728.537625	253.197540	-80.882530	193.830505
3728.540958	251.677963	-79.304497	189.271774
3728.544282	249.924606	-78.310936	185.355927
3728.547624	248.288132	-76.908241	182.141434
3728.550957	246.943893	-76.206894	179.628281
3728.554292	245.716537	-74.687317	175.654007
3728.557657	242.911163	-73.635300	171.738159
3728.560953	241.917587	-72.875511	168.523666
3728.564287	240.339569	-71.648155	165.601395
3728.567622	238.644638	-70.596146	161.919342
3728.570980	237.008179	-69.836357	158.587952
3728.574289	235.430161	-68.492111	155.841019
3728.577620	233.559921	-67.907654	152.684967
3728.580958	232.624786	-66.972534	150.405609
3728.584291	230.929871	-65.686737	147.950897
3728.587619	229.293396	-64.576271	145.320862
3728.590952	228.182938	-63.933372	142.106369
3728.594287	226.546478	-63.348923	139.826996
3728.597620	224.734665	-62.472237	138.132080
3728.600948	223.156647	-61.186440	134.976044
3728.604284	221.929291	-60.426651	132.813553
3728.607612	220.175919	-59.725311	130.417297
3728.610948	219.123901	-58.848629	128.196365
3728.614289	217.370544	-57.796612	126.092331
3728.617621	215.850967	-56.627705	124.397430
3728.620962	215.266510	-55.867912	122.293396
3728.624288	214.272934	-55.108128	121.358261
3728.627615	212.987152	-54.815895	118.669785
3728.630948	211.350677	-53.296318	116.507309
3728.635567	210.123322	-52.361191	113.409698
3728.638914	208.720627	-51.250732	111.656342
3728.641825	207.142609	-50.783173	109.084747
3728.645258	205.915253	-50.432499	108.383408
3728.648552	205.272354	-49.906487	107.448288
3728.651860	204.337234	-49.555817	105.870255
3728.655130	203.518997	-49.146694	104.759796
3728.658480	202.759201	-48.445351	104.000000
3728.661362	200.830505	-48.153130	102.480423
3728.664703	199.836945	-47.627117	101.603729
3728.668035	199.252487	-46.867332	100.902390
3728.671368	198.200470	-45.990646	99.441269
3728.674730	197.382233	-46.165985	98.739929
3728.678046	197.265350	-44.821739	97.629456
3728.681388	196.271774	-44.763294	96.226761
3728.684272	196.388657	-44.178841	96.460541
3728.687637	195.511978	-43.828171	94.064285
3728.690942	194.810638	-43.243717	93.888947
3728.694271	193.349503	-42.542374	93.596725
3728.697605	193.583282	-42.191700	91.317352
3728.700945	192.998840	-41.782585	91.025131
3728.704272	192.589706	-41.431911	90.557571
3728.707604	191.537704	-41.315022	90.206894
3728.710946	190.836349	-41.139687	88.862656
3728.714277	191.303925	-40.613678	89.154877
3728.717601	190.251892	-40.496788	88.804214
3728.720938	190.544128	-39.152542	87.109299
3728.724270	189.082993	-40.146114	88.862656
3728.727608	188.907654	-38.743427	86.115723
3728.730944	189.141434	-38.100529	85.355927
3728.734273	188.907654	-38.334309	85.998825
3728.737604	188.732315	-37.808300	85.589706
3728.740934	188.556992	-37.808300	84.946808
3728.744280	187.914078	-36.931622	85.005264
3728.747601	188.089432	-36.580948	83.836349
3728.750926	187.154297	-36.347168	83.953247
3728.754270	186.920517	-35.762711	84.420807
3728.757599	187.446518	-35.353596	84.303909
3728.760933	187.388077	-35.295147	84.654587
3728.764270	186.978958	-34.827587	83.661011
3728.767643	187.563416	-34.827587	84.888367
3728.770931	186.920517	-34.476913	84.713028
3728.774280	186.569839	-34.184689	84.245468
3728.777598	187.738754	-34.067795	85.355927
3728.780929	187.329636	-33.658680	84.128571
3728.784260	188.089432	-33.191116	84.245468
3728.787600	187.972534	-32.431328	84.128571
3728.790933	188.147858	-32.255993	84.829926
3728.794260	188.030975	-31.788429	84.303909
3728.797597	188.790771	-32.139099	85.122147
3728.800928	189.082993	-31.145531	84.713028
3728.804265	189.141434	-32.022209	85.823502
3728.807608	189.901230	-31.496201	85.239044
3728.812245	190.953232	-30.561077	87.576859
3728.815566	191.128586	-30.619522	88.570435
3728.818472	191.946808	-30.794857	88.862656
3728.821816	192.005264	-30.035069	89.154877
3728.825167	192.297485	-30.035069	89.213318
3728.828507	192.998840	-29.392170	89.680893
3728.831818	193.115723	-29.567505	90.206894
3728.835116	194.459976	-29.509060	90.966690
3728.838441	195.453537	-29.041496	91.843369
3728.841360	195.511978	-28.983051	92.427826
3728.844685	197.382233	-28.398598	91.726471
3728.848016	197.265350	-28.398598	93.888947
3728.851380	197.732910	-27.638809	94.414963
3728.854736	198.901810	-27.697254	94.064285
3728.858035	199.486267	-27.638809	96.109879
3728.861365	200.421387	-26.762127	96.811218
3728.864698	200.947403	-26.703682	97.571014
3728.867587	202.525421	-26.528343	98.389252
3728.870925	203.051437	-25.943890	99.090591
3728.874258	203.928116	-25.768555	101.486847
3728.877590	204.746353	-25.067211	102.363525
3728.880923	206.032135	-24.541203	103.298660
3728.884260	207.668610	-24.132088	104.000000
3728.887587	208.895966	-23.956749	104.935120
3728.890920	210.123322	-23.664524	106.805374
3728.894261	211.584457	-23.313850	107.857391
3728.897588	212.110458	-23.196960	109.318527
3728.900923	213.980713	-23.138515	110.721222
3728.904255	214.565170	-22.670952	111.597900
3728.907590	216.669205	-22.320282	113.468140
3728.910923	217.838104	-22.320282	115.396851
3728.914250	219.474579	-21.794273	117.734665
3728.917587	221.052597	-21.560490	119.780243
3728.920928	222.104614	-21.560490	121.358261
3728.924251	223.799530	-21.268265	122.819397
3728.927582	225.494446	-20.976036	124.514313
3728.930920	227.014038	-20.040913	127.787247
3728.934248	228.358261	-19.865574	128.663925
3728.937583	230.228516	-19.631794	131.001740
3728.940932	231.631210	-19.105785	133.222672
3728.944253	233.326126	-18.755112	136.086502
3728.947581	235.663940	-18.813560	138.424316
3728.950913	236.599060	-17.995323	141.112808
3728.954247	239.170670	-17.819988	142.632370
3728.957611	240.982452	-17.410870	145.613083
3728.960920	242.151382	-16.884861	148.184677
3728.964249	243.612503	-17.118645	150.464050
3728.967581	245.833435	-16.066628	153.620102
3728.970921	248.346588	-14.897719	155.782578
3728.974247	250.333740	-15.248391	159.873764
3728.977578	252.028625	-14.839274	161.744003
3728.980917	254.074234	-13.962594	165.659836
3728.984243	256.587402	-13.495032	169.225006
3728.987581	258.574524	-12.501462	172.439499
3728.990913	260.094086	-11.917008	174.485092
3728.994248	261.438354	-11.215663	178.634705
3728.998867	266.230865	-10.163647	186.758621
3729.001831	267.691986	-9.111630	190.557556
3729.005118	270.146698	-8.644068	193.947403
3729.008442	271.958496	-7.533606	197.571014
3729.011821	275.348328	-6.481589	201.194611
3729.015180	276.225037	-6.072473	205.811813
3729.018423	278.913483	-5.137346	209.084747
3729.021765	281.485107	-3.734658	214.052597
3729.025099	282.829315	-2.682642	217.267075
3729.028434	285.050262	-2.098188	222.702499
3729.031326	288.381653	-0.929281	227.261261
3729.034690	289.784332	-0.227937	231.703094
3729.038062	290.953247	0.940970	237.664536
3729.041344	293.349487	1.817651	241.405029
3729.044696	295.278198	3.220339	246.665100
3729.048009	298.901825	3.921683	252.275879
3729.051331	300.538269	5.967271	257.477509
3729.054236	301.940948	7.662186	263.789612
3729.057571	304.045013	8.129749	269.926361
3729.060904	306.032166	9.883109	276.998260
3729.064241	309.421967	10.642899	281.498535
3729.067576	310.473999	12.396259	287.459961
3729.070899	312.344238	14.032729	294.181183
3729.074234	314.214478	15.435418	299.967255
3729.077570	315.558746	16.896553	307.039154
3729.080918	316.435425	18.766804	314.111053
3729.084236	318.656342	19.994156	321.825836
3729.087571	320.877258	21.689072	327.261261
3729.090905	321.637054	22.448860	335.794281
3729.094252	323.331970	24.845119	341.054352
3729.097567	323.857971	27.007599	348.067780
3729.100902	326.721802	28.468731	355.081238
3729.104238	327.014038	30.689655	363.380463
3729.107560	327.423126	32.326126	370.393921
3729.110898	327.540039	34.079487	378.284058
3729.114234	327.540039	36.884865	384.829926
3729.117566	329.410278	38.638222	395.233185
3729.120897	328.708923	40.859146	401.486847
3729.124266	328.825836	42.904732	409.435425
3729.127566	329.001160	45.593220	417.150177
3729.130906	329.001160	48.632378	425.624786
3729.134232	329.585632	50.736412	433.631775
3729.137568	327.890717	53.132668	440.703705
3729.140898	327.949158	56.054935	449.178253
3729.144231	326.838684	58.743420	458.237274
3729.147564	326.020447	61.081242	465.192291
3729.150893	324.851562	64.587959	475.127991
3729.154227	323.916443	67.393341	484.829926
3729.157558	321.753937	70.374054	492.661591
3729.160939	320.117462	73.179428	500.960846
3729.164235	317.136749	76.160133	509.493866
3729.167597	315.558746	79.725304	517.208679
3729.170897	311.935150	82.706017	525.566345
3729.174236	309.305084	85.452950	534.274719
3729.177564	305.097015	88.725891	542.924622
3729.182176	297.908234	95.388664	558.178833
3729.185094	293.875488	97.726471	567.179443
3729.188431	290.018127	100.999413	575.537170
3729.191828	285.342499	104.506134	584.420837
3729.195145	280.257751	107.720634	591.843384
3729.198412	276.108124	111.227356	599.908813
3729.201734	269.854492	114.324959	607.331421
3729.204661	263.717712	117.714783	613.059021
3729.207985	258.106964	120.637054	619.312744
3729.211348	252.203979	124.143776	627.378174
3729.214650	246.184113	128.059616	634.450073
3729.218002	239.229095	130.864990	641.054382
3729.221338	231.397430	135.189957	647.308044
3729.224661	225.026886	137.644653	652.626587
3729.227978	217.721222	140.976044	657.945068
3729.230893	209.188202	144.658112	663.614258
3729.234218	201.181183	148.106384	668.289917
3729.237552	192.355927	150.970200	673.374634
3729.240889	183.998245	154.769150	677.115173
3729.244221	175.465225	157.866745	681.440125
3729.247551	166.756866	161.315033	684.011719
3729.250892	157.697845	164.295746	687.284668
3729.254257	148.872589	167.393341	691.025146
3729.257552	139.053772	170.140274	691.668030
3729.260887	129.176514	173.880768	694.531860
3729.264218	120.234367	176.335480	695.466980
3729.267554	110.006432	179.374634	697.571045
3729.270883	100.421387	181.946228	697.571045
3729.274215	90.427231	184.342499	698.330811
3729.277550	80.433075	187.556992	697.804810
3729.280884	70.088257	190.070145	698.330811
3729.284218	60.269432	192.466400	696.928101
3729.287589	50.509056	194.278214	695.642334
3729.290880	40.105785	196.732910	694.765686
3729.294224	29.877850	198.369385	694.531860
3729.297584	18.714787	200.298080	690.382263
3729.300884	8.895967	202.460556	688.979553
3729.304228	-0.805962	204.272354	685.648193
3729.307548	-10.975452	205.032166	682.667480
3729.310880	-22.021626	205.967285	677.582764
3729.314210	-30.788425	206.902420	673.549988
3729.317546	-41.016361	208.071304	669.108154
3729.320883	-50.659843	208.772659	666.244324
3729.324215	-60.127998	209.473999	661.860962
3729.327544	-69.070137	209.766220	655.315063
3729.330873	-78.421394	209.766220	650.639465
3729.334211	-87.597313	210.409119	645.028625
3729.337548	-96.481003	210.292221	638.891907
3729.340888	-106.124489	209.415558	632.755127
3729.344210	-114.306839	209.415558	624.864990
3729.347543	-122.722961	209.240234	617.676270
3729.350877	-130.145523	208.714203	611.597900
3729.354210	-138.094101	208.655762	606.162476
3729.357543	-146.510223	207.662186	597.512573
3729.360878	-153.348328	206.376389	589.680908
3729.365513	-166.264755	204.798370	574.777344
3729.368401	-173.804199	203.921692	567.822388
3729.371747	-178.830505	203.044998	559.406250
3729.375067	-185.493286	201.525436	552.743408
3729.378463	-190.928696	200.824081	543.625977
3729.381807	-196.130325	199.304504	535.092957
3729.385101	-201.507309	197.434250	525.624817
3729.388383	-206.475159	195.739349	517.442444
3729.391727	-209.981873	194.570435	509.727631
3729.394627	-215.358856	193.167740	501.428375
3729.397961	-218.690231	191.765045	493.362915
3729.401305	-222.430740	189.193451	484.245453
3729.404643	-225.937469	188.082993	475.653992
3729.407984	-229.561066	186.154297	465.952087
3729.411310	-233.009338	183.991821	457.769714
3729.414634	-235.697845	182.121567	450.054962
3729.417534	-238.327881	180.017532	442.632355
3729.420867	-240.724152	178.673294	433.339569
3729.424200	-243.061951	176.160156	425.741638
3729.427566	-245.458191	173.822342	416.331970
3729.430867	-247.562256	172.068970	410.253632
3729.434201	-249.724731	169.438934	402.597321
3729.437535	-251.127411	167.334900	393.421387
3729.440868	-252.822327	164.997086	385.998810
3729.444206	-254.225006	162.951492	378.342468
3729.447533	-255.627716	160.847473	370.919922
3729.450863	-256.621277	158.743439	362.036224
3729.454199	-256.913513	155.587387	355.022797
3729.457532	-258.140839	153.541794	347.483337
3729.460863	-257.731720	151.145538	339.710114
3729.464198	-258.257751	149.216843	333.339569
3729.467537	-258.725311	147.112808	327.261261
3729.470887	-258.082428	144.482758	320.306244
3729.474198	-258.374634	142.028061	313.585052
3729.477533	-258.140839	140.391602	306.513153
3729.480866	-258.608429	138.053787	299.908813
3729.484197	-257.322632	135.423737	293.070709
3729.487527	-259.192871	133.904160	286.758606
3729.490865	-257.381073	131.274109	281.323181
3729.494195	-258.199280	129.345413	274.777313
3729.497523	-256.445923	127.533600	270.393921
3729.500861	-255.744598	125.020454	264.432495
3729.504188	-255.510803	122.682640	258.880188
3729.507522	-254.225006	120.637054	252.918762
3729.510863	-253.874359	118.591461	247.483353
3729.514201	-252.588531	117.305672	241.697266
3729.517529	-251.127411	115.143188	236.787842
3729.520864	-249.490936	113.974281	232.755112
3729.524195	-248.964935	111.928703	228.137924
3729.527524	-247.562256	109.824669	223.286957
3729.530853	-247.386902	108.480415	219.137329
3729.534197	-245.049103	106.727058	214.286377
3729.537527	-244.230865	104.856812	209.318512
3729.540856	-242.185272	102.986557	204.233780
3729.544221	-242.302155	101.408531	199.499695
3729.548805	-237.626526	98.778488	193.012268
3729.552164	-236.457642	97.200470	188.278198
3729.555077	-234.353592	95.330215	184.771469
3729.558456	-234.762726	94.161308	180.680298
3729.561771	-231.548218	93.050850	178.693161
3729.565124	-230.788422	91.297485	174.368195
3729.568388	-229.385742	89.719460	169.634125
3729.571699	-228.041489	88.492111	166.361191
3729.575040	-226.931030	87.264755	164.081818
3729.577948	-225.469910	85.686729	160.633545
3729.581289	-224.067215	84.284042	157.711273
3729.584625	-222.430740	83.056694	155.139679
3729.587979	-220.911179	81.887787	151.632965
3729.591288	-219.333130	80.426651	149.996490
3729.594609	-219.216248	79.374634	146.255997
3729.597520	-217.346008	77.971947	143.509048
3729.600871	-216.293976	76.744591	140.586792
3729.604184	-215.826416	75.049675	137.839844
3729.607519	-213.137939	74.757446	134.859146
3729.610846	-211.559891	73.413208	133.281128
3729.614184	-211.793686	72.536530	130.066620
3729.617512	-210.215668	71.309174	128.839279
3729.620849	-208.754517	70.490944	125.858551
3729.624184	-206.942734	69.029808	125.040329
3729.627512	-205.189346	68.445358	122.293396
3729.630850	-204.604919	67.568672	120.540039
